Time,H,T,I,E,alpha1,alpha2,beta1,beta2,delta1,gamma2,s,rho,omega,mu,alpha3,gamma3,sigma1,sigma2,sigma3,v,theta,pi,Tissue
0.0,0.999999999999998,9.99999999999998e-06,1.379310345,0.499999999999999,0.7,0.98,0.3,0.4,1.0,0.9,0.4,0.2,0.3,0.29,1.0,0.085,1.2,0.94,0.3,0.4,0.8,0.0,1.0
0.01,0.9979815028893299,0.004699583469979454,1.3770353376870423,0.499999999999999,0.7,0.98,0.3,0.4,1.0,0.9,0.4,0.2,0.3,0.29,1.0,0.085,1.2,0.94,0.3,0.4,0.8,0.0,1.0
0.02,0.995926564166556,0.009368314280261948,1.3748067244901487,0.499999999999999,0.7,0.98,0.3,0.4,1.0,0.9,0.4,0.2,0.3,0.29,1.0,0.085,1.2,0.94,0.3,0.4,0.8,0.0,1.0
0.03,0.9938357326428794,0.014016085076062699,1.3726228145636266,0.499999999999999,0.7,0.98,0.3,0.4,1.0,0.9,0.4,0.2,0.3,0.29,1.0,0.085,1.2,0.94,0.3,0.4,0.8,0.0,1.0
0.04,0.9917095735076406,0.018642783861499687,1.3704819690534706,0.499999999999999,0.7,0.98,0.3,0.4,1.0,0.9,0.4,0.2,0.3,0.29,1.0,0.085,1.2,0.94,0.3,0.4,0.8,0.0,1.0
0.05,0.9895486462012234,0.02324829817091783,1.3683827091450076,0.499999999999999,0.7,0.98,0.3,0.4,1.0,0.9,0.4,0.2,0.3,0.29,1.0,0.085,1.2,0.94,0.3,0.4,0.8,0.0,1.0
0.06,0.9873535105837068,0.02783251628989141,1.3663234853377648,0.499999999999999,0.7,0.98,0.3,0.4,1.0,0.9,0.4,0.2,0.3,0.29,1.0,0.085,1.2,0.94,0.3,0.4,0.8,0.0,1.0
0.07,0.985124726264027,0.03239532563606122,1.36430286228512,0.499999999999999,0.7,0.98,0.3,0.4,1.0,0.9,0.4,0.2,0.3,0.29,1.0,0.085,1.2,0.94,0.3,0.4,0.8,0.0,1.0
0.08,0.9828628523926464,0.036936611968663165,1.362319582354693,0.499999999999999,0.7,0.98,0.3,0.4,1.0,0.9,0.4,0.2,0.3,0.29,1.0,0.085,1.2,0.94,0.3,0.4,0.8,0.0,1.0
0.09,0.9805684486487337,0.041456263392004616,1.3603721751811257,0.499999999999999,0.7,0.98,0.3,0.4,1.0,0.9,0.4,0.2,0.3,0.29,1.0,0.085,1.2,0.94,0.3,0.4,0.8,0.0,1.0
0.1,0.9782420734547871,0.045954165917395595,1.3584596529050406,0.499999999999999,0.7,0.98,0.3,0.4,1.0,0.9,0.4,0.2,0.3,0.29,1.0,0.085,1.2,0.94,0.3,0.4,0.8,0.0,1.0
0.11,0.975884286328739,0.05043020688186044,1.3565806103832947,0.499999999999999,0.7,0.98,0.3,0.4,1.0,0.9,0.4,0.2,0.3,0.29,1.0,0.085,1.2,0.94,0.3,0.4,0.8,0.0,1.0
0.12,0.9734956442330992,0.0548842742866757,1.3547341494370364,0.499999999999999,0.7,0.98,0.3,0.4,1.0,0.9,0.4,0.2,0.3,0.29,1.0,0.085,1.2,0.94,0.3,0.4,0.8,0.0,1.0
0.13,0.9710767058730648,0.05931625531467778,1.3529190715358361,0.499999999999999,0.7,0.98,0.3,0.4,1.0,0.9,0.4,0.2,0.3,0.29,1.0,0.085,1.2,0.94,0.3,0.4,0.8,0.0,1.0
0.14,0.9686280273720086,0.06372603984348163,1.3511344067079885,0.499999999999999,0.7,0.98,0.3,0.4,1.0,0.9,0.4,0.2,0.3,0.29,1.0,0.085,1.2,0.94,0.3,0.4,0.8,0.0,1.0
0.15,0.9661501644770597,0.06811351810072983,1.349379224520154,0.499999999999999,0.7,0.98,0.3,0.4,1.0,0.9,0.4,0.2,0.3,0.29,1.0,0.085,1.2,0.94,0.3,0.4,0.8,0.0,1.0
0.16,0.9636436732032695,0.0724785801545198,1.347652515888764,0.499999999999999,0.7,0.98,0.3,0.4,1.0,0.9,0.4,0.2,0.3,0.29,1.0,0.085,1.2,0.94,0.3,0.4,0.8,0.0,1.0
0.17,0.9611091047925747,0.07682112164917562,1.34595351445171,0.499999999999999,0.7,0.98,0.3,0.4,1.0,0.9,0.4,0.2,0.3,0.29,1.0,0.085,1.2,0.94,0.3,0.4,0.8,0.0,1.0
0.18,0.9585470152375957,0.08114103261221232,1.3442812330208125,0.499999999999999,0.7,0.98,0.3,0.4,1.0,0.9,0.4,0.2,0.3,0.29,1.0,0.085,1.2,0.94,0.3,0.4,0.8,0.0,1.0
0.19,0.9559579504493497,0.08543821474672136,1.3426350077230629,0.499999999999999,0.7,0.98,0.3,0.4,1.0,0.9,0.4,0.2,0.3,0.29,1.0,0.085,1.2,0.94,0.3,0.4,0.8,0.0,1.0
0.2,0.9533424644920634,0.08971256034674228,1.3410139330024056,0.499999999999999,0.7,0.98,0.3,0.4,1.0,0.9,0.4,0.2,0.3,0.29,1.0,0.085,1.2,0.94,0.3,0.4,0.8,0.0,1.0
0.21,0.9507010995740917,0.09396397473768181,1.3394173613318934,0.499999999999999,0.7,0.98,0.3,0.4,1.0,0.9,0.4,0.2,0.3,0.29,1.0,0.085,1.2,0.94,0.3,0.4,0.8,0.0,1.0
0.22,0.9480344011012004,0.09819235977168504,1.337844581506948,0.499999999999999,0.7,0.98,0.3,0.4,1.0,0.9,0.4,0.2,0.3,0.29,1.0,0.085,1.2,0.94,0.3,0.4,0.8,0.0,1.0
0.23,0.945342917594602,0.10239761391667189,1.3362948202777263,0.499999999999999,0.7,0.98,0.3,0.4,1.0,0.9,0.4,0.2,0.3,0.29,1.0,0.085,1.2,0.94,0.3,0.4,0.8,0.0,1.0
0.24,0.9426271947943428,0.10657963864658075,1.3347673528237705,0.499999999999999,0.7,0.98,0.3,0.4,1.0,0.9,0.4,0.2,0.3,0.29,1.0,0.085,1.2,0.94,0.3,0.4,0.8,0.0,1.0
0.25,0.9398877572783004,0.1107383581177174,1.3332617348578555,0.499999999999999,0.7,0.98,0.3,0.4,1.0,0.9,0.4,0.2,0.3,0.29,1.0,0.085,1.2,0.94,0.3,0.4,0.8,0.0,1.0
0.26,0.937125152434553,0.11487367204070524,1.3317772211441679,0.499999999999999,0.7,0.98,0.3,0.4,1.0,0.9,0.4,0.2,0.3,0.29,1.0,0.085,1.2,0.94,0.3,0.4,0.8,0.0,1.0
0.27,0.9343399185199531,0.1189854899141892,1.3303131878853263,0.499999999999999,0.7,0.98,0.3,0.4,1.0,0.9,0.4,0.2,0.3,0.29,1.0,0.085,1.2,0.94,0.3,0.4,0.8,0.0,1.0
0.28,0.9315325868259764,0.12307372754279416,1.3288690700568877,0.499999999999999,0.7,0.98,0.3,0.4,1.0,0.9,0.4,0.2,0.3,0.29,1.0,0.085,1.2,0.94,0.3,0.4,0.8,0.0,1.0
0.29,0.9287036783478334,0.12713830993896494,1.3274443858710456,0.499999999999999,0.7,0.98,0.3,0.4,1.0,0.9,0.4,0.2,0.3,0.29,1.0,0.085,1.2,0.94,0.3,0.4,0.8,0.0,1.0
0.3,0.9258537270030227,0.13117915109516215,1.326038566247971,0.499999999999999,0.7,0.98,0.3,0.4,1.0,0.9,0.4,0.2,0.3,0.29,1.0,0.085,1.2,0.94,0.3,0.4,0.8,0.0,1.0
0.31,0.922983258800357,0.1351961721316281,1.3246511078088994,0.499999999999999,0.7,0.98,0.3,0.4,1.0,0.9,0.4,0.2,0.3,0.29,1.0,0.085,1.2,0.94,0.3,0.4,0.8,0.0,1.0
0.32,0.9200927901685562,0.13918930205485452,1.3232815168546332,0.499999999999999,0.7,0.98,0.3,0.4,1.0,0.9,0.4,0.2,0.3,0.29,1.0,0.085,1.2,0.94,0.3,0.4,0.8,0.0,1.0
0.33,0.9171828376979191,0.1431584701909085,1.3219293279007451,0.499999999999999,0.7,0.98,0.3,0.4,1.0,0.9,0.4,0.2,0.3,0.29,1.0,0.085,1.2,0.94,0.3,0.4,0.8,0.0,1.0
0.34,0.9142539187226981,0.1471036057330832,1.3205941047856453,0.499999999999999,0.7,0.98,0.3,0.4,1.0,0.9,0.4,0.2,0.3,0.29,1.0,0.085,1.2,0.94,0.3,0.4,0.8,0.0,1.0
0.35000000000000003,0.9113065456725536,0.15102464212930716,1.3192754299232543,0.499999999999999,0.7,0.98,0.3,0.4,1.0,0.9,0.4,0.2,0.3,0.29,1.0,0.085,1.2,0.94,0.3,0.4,0.8,0.0,1.0
0.36,0.9083412212269466,0.15492151890162106,1.317972818848462,0.499999999999999,0.7,0.98,0.3,0.4,1.0,0.9,0.4,0.2,0.3,0.29,1.0,0.085,1.2,0.94,0.3,0.4,0.8,0.0,1.0
0.37,0.9053584525338302,0.15879417458883058,1.3166859035927225,0.499999999999999,0.7,0.98,0.3,0.4,1.0,0.9,0.4,0.2,0.3,0.29,1.0,0.085,1.2,0.94,0.3,0.4,0.8,0.0,1.0
0.38,0.9023587411155147,0.1626425517566593,1.3154143025020235,0.499999999999999,0.7,0.98,0.3,0.4,1.0,0.9,0.4,0.2,0.3,0.29,1.0,0.085,1.2,0.94,0.3,0.4,0.8,0.0,1.0
0.39,0.899342584072693,0.16646659600005384,1.3141576347964001,0.499999999999999,0.7,0.98,0.3,0.4,1.0,0.9,0.4,0.2,0.3,0.29,1.0,0.085,1.2,0.94,0.3,0.4,0.8,0.0,1.0
0.4,0.8963104721295988,0.17026625626913797,1.3129154937988892,0.499999999999999,0.7,0.98,0.3,0.4,1.0,0.9,0.4,0.2,0.3,0.29,1.0,0.085,1.2,0.94,0.3,0.4,0.8,0.0,1.0
0.41000000000000003,0.8932628971920864,0.17404148357896676,1.3116875503688035,0.499999999999999,0.7,0.98,0.3,0.4,1.0,0.9,0.4,0.2,0.3,0.29,1.0,0.085,1.2,0.94,0.3,0.4,0.8,0.0,1.0
0.42,0.8902003460371756,0.1777922320867893,1.3104734665423612,0.499999999999999,0.7,0.98,0.3,0.4,1.0,0.9,0.4,0.2,0.3,0.29,1.0,0.085,1.2,0.94,0.3,0.4,0.8,0.0,1.0
0.43,0.8871232990888475,0.18151845910826905,1.3092728958533075,0.499999999999999,0.7,0.98,0.3,0.4,1.0,0.9,0.4,0.2,0.3,0.29,1.0,0.085,1.2,0.94,0.3,0.4,0.8,0.0,1.0
0.44,0.8840322334187567,0.1852201248043241,1.308085506763388,0.499999999999999,0.7,0.98,0.3,0.4,1.0,0.9,0.4,0.2,0.3,0.29,1.0,0.085,1.2,0.94,0.3,0.4,0.8,0.0,1.0
0.45,0.8809276247086487,0.18889719197632562,1.3069109979854914,0.499999999999999,0.7,0.98,0.3,0.4,1.0,0.9,0.4,0.2,0.3,0.29,1.0,0.085,1.2,0.94,0.3,0.4,0.8,0.0,1.0
0.46,0.8778099437747263,0.19254962642882148,1.3057490713448525,0.499999999999999,0.7,0.98,0.3,0.4,1.0,0.9,0.4,0.2,0.3,0.29,1.0,0.085,1.2,0.94,0.3,0.4,0.8,0.0,1.0
0.47000000000000003,0.8746796487176078,0.196177397774785,1.3045993961829287,0.499999999999999,0.7,0.98,0.3,0.4,1.0,0.9,0.4,0.2,0.3,0.29,1.0,0.085,1.2,0.94,0.3,0.4,0.8,0.0,1.0
0.48,0.8715372041193105,0.19978047746208832,1.3034617043399206,0.499999999999999,0.7,0.98,0.3,0.4,1.0,0.9,0.4,0.2,0.3,0.29,1.0,0.085,1.2,0.94,0.3,0.4,0.8,0.0,1.0
0.49,0.8683830684588174,0.2033588400672326,1.30233572788972,0.499999999999999,0.7,0.98,0.3,0.4,1.0,0.9,0.4,0.2,0.3,0.29,1.0,0.085,1.2,0.94,0.3,0.4,0.8,0.0,1.0
0.5,0.8652176959095188,0.2069124631105636,1.3012212080332597,0.499999999999999,0.7,0.98,0.3,0.4,1.0,0.9,0.4,0.2,0.3,0.29,1.0,0.085,1.2,0.94,0.3,0.4,0.8,0.0,1.0
0.51,0.8620415368757858,0.21044132700110998,1.300117897753365,0.499999999999999,0.7,0.98,0.3,0.4,1.0,0.9,0.4,0.2,0.3,0.29,1.0,0.085,1.2,0.94,0.3,0.4,0.8,0.0,1.0
0.52,0.8588550354722664,0.2139454152053607,1.2990255485635485,0.499999999999999,0.7,0.98,0.3,0.4,1.0,0.9,0.4,0.2,0.3,0.29,1.0,0.085,1.2,0.94,0.3,0.4,0.8,0.0,1.0
0.53,0.8556586153208103,0.21742471519825282,1.297943835843212,0.499999999999999,0.7,0.98,0.3,0.4,1.0,0.9,0.4,0.2,0.3,0.29,1.0,0.085,1.2,0.94,0.3,0.4,0.8,0.0,1.0
0.54,0.8524527228240494,0.22087921556572512,1.2968725863245187,0.499999999999999,0.7,0.98,0.3,0.4,1.0,0.9,0.4,0.2,0.3,0.29,1.0,0.085,1.2,0.94,0.3,0.4,0.8,0.0,1.0
0.55,0.8492377897226945,0.22430890851174945,1.2958115812581275,0.499999999999999,0.7,0.98,0.3,0.4,1.0,0.9,0.4,0.2,0.3,0.29,1.0,0.085,1.2,0.94,0.3,0.4,0.8,0.0,1.0
0.56,0.8460142436644477,0.22771378915067372,1.2947606119733948,0.499999999999999,0.7,0.98,0.3,0.4,1.0,0.9,0.4,0.2,0.3,0.29,1.0,0.085,1.2,0.94,0.3,0.4,0.8,0.0,1.0
0.5700000000000001,0.8427825082040029,0.23109385550722186,1.2937194798783744,0.499999999999999,0.7,0.98,0.3,0.4,1.0,0.9,0.4,0.2,0.3,0.29,1.0,0.085,1.2,0.94,0.3,0.4,0.8,0.0,1.0
0.58,0.8395429951461025,0.23444910840540198,1.292687951325813,0.499999999999999,0.7,0.98,0.3,0.4,1.0,0.9,0.4,0.2,0.3,0.29,1.0,0.085,1.2,0.94,0.3,0.4,0.8,0.0,1.0
0.59,0.8362961051141872,0.2377795514767571,1.291665760965069,0.499999999999999,0.7,0.98,0.3,0.4,1.0,0.9,0.4,0.2,0.3,0.29,1.0,0.085,1.2,0.94,0.3,0.4,0.8,0.0,1.0
0.6,0.8330422551520811,0.24108519156082706,1.2906527744407994,0.499999999999999,0.7,0.98,0.3,0.4,1.0,0.9,0.4,0.2,0.3,0.29,1.0,0.085,1.2,0.94,0.3,0.4,0.8,0.0,1.0
0.61,0.8297818484113172,0.2443660382653537,1.289648809714289,0.499999999999999,0.7,0.98,0.3,0.4,1.0,0.9,0.4,0.2,0.3,0.29,1.0,0.085,1.2,0.94,0.3,0.4,0.8,0.0,1.0
0.62,0.8265152835676852,0.24762210410290186,1.2886536925694838,0.499999999999999,0.7,0.98,0.3,0.4,1.0,0.9,0.4,0.2,0.3,0.29,1.0,0.085,1.2,0.94,0.3,0.4,0.8,0.0,1.0
0.63,0.823242954821232,0.2508534044908595,1.28766725661299,0.499999999999999,0.7,0.98,0.3,0.4,1.0,0.9,0.4,0.2,0.3,0.29,1.0,0.085,1.2,0.94,0.3,0.4,0.8,0.0,1.0
0.64,0.8199652424044651,0.2540599530039353,1.2866892808528476,0.499999999999999,0.7,0.98,0.3,0.4,1.0,0.9,0.4,0.2,0.3,0.29,1.0,0.085,1.2,0.94,0.3,0.4,0.8,0.0,1.0
0.65,0.8166825264292844,0.25724176829996476,1.2857195807605835,0.499999999999999,0.7,0.98,0.3,0.4,1.0,0.9,0.4,0.2,0.3,0.29,1.0,0.085,1.2,0.94,0.3,0.4,0.8,0.0,1.0
0.66,0.8133951896810996,0.26039887551744134,1.2847580266462677,0.499999999999999,0.7,0.98,0.3,0.4,1.0,0.9,0.4,0.2,0.3,0.29,1.0,0.085,1.2,0.94,0.3,0.4,0.8,0.0,1.0
0.67,0.8101036054902719,0.26353130020918725,1.2838044638970505,0.499999999999999,0.7,0.98,0.3,0.4,1.0,0.9,0.4,0.2,0.3,0.29,1.0,0.085,1.2,0.94,0.3,0.4,0.8,0.0,1.0
0.68,0.8068081424356458,0.26663907069491416,1.2828587439091623,0.499999999999999,0.7,0.98,0.3,0.4,1.0,0.9,0.4,0.2,0.3,0.29,1.0,0.085,1.2,0.94,0.3,0.4,0.8,0.0,1.0
0.6900000000000001,0.8035091643445488,0.2697222180612234,1.2819207240879142,0.499999999999999,0.7,0.98,0.3,0.4,1.0,0.9,0.4,0.2,0.3,0.29,1.0,0.085,1.2,0.94,0.3,0.4,0.8,0.0,1.0
0.7000000000000001,0.8002070236287433,0.27278077008800183,1.28099020713865,0.499999999999999,0.7,0.98,0.3,0.4,1.0,0.9,0.4,0.2,0.3,0.29,1.0,0.085,1.2,0.94,0.3,0.4,0.8,0.0,1.0
0.71,0.7969020751946534,0.27581476392618237,1.2800670677880084,0.499999999999999,0.7,0.98,0.3,0.4,1.0,0.9,0.4,0.2,0.3,0.29,1.0,0.085,1.2,0.94,0.3,0.4,0.8,0.0,1.0
0.72,0.7935946683711788,0.2788242387407658,1.279151179246835,0.499999999999999,0.7,0.98,0.3,0.4,1.0,0.9,0.4,0.2,0.3,0.29,1.0,0.085,1.2,0.94,0.3,0.4,0.8,0.0,1.0
0.73,0.790285146534674,0.2818092353690266,1.2782424097937644,0.499999999999999,0.7,0.98,0.3,0.4,1.0,0.9,0.4,0.2,0.3,0.29,1.0,0.085,1.2,0.94,0.3,0.4,0.8,0.0,1.0
0.74,0.7869738481784199,0.2847697972952283,1.277340632518037,0.499999999999999,0.7,0.98,0.3,0.4,1.0,0.9,0.4,0.2,0.3,0.29,1.0,0.085,1.2,0.94,0.3,0.4,0.8,0.0,1.0
0.75,0.7836611068301853,0.2877059702254089,1.276445723509377,0.499999999999999,0.7,0.98,0.3,0.4,1.0,0.9,0.4,0.2,0.3,0.29,1.0,0.085,1.2,0.94,0.3,0.4,0.8,0.0,1.0
0.76,0.7803472489668997,0.29061779133133075,1.2755575160698673,0.499999999999999,0.7,0.98,0.3,0.4,1.0,0.9,0.4,0.2,0.3,0.29,1.0,0.085,1.2,0.94,0.3,0.4,0.8,0.0,1.0
0.77,0.7770325993041375,0.29350531653346806,1.2746759168566624,0.499999999999999,0.7,0.98,0.3,0.4,1.0,0.9,0.4,0.2,0.3,0.29,1.0,0.085,1.2,0.94,0.3,0.4,0.8,0.0,1.0
0.78,0.7737174764324272,0.2963685979932301,1.2738008100671774,0.499999999999999,0.7,0.98,0.3,0.4,1.0,0.9,0.4,0.2,0.3,0.29,1.0,0.085,1.2,0.94,0.3,0.4,0.8,0.0,1.0
0.79,0.7704021940229341,0.29920769033183653,1.2729320839126217,0.499999999999999,0.7,0.98,0.3,0.4,1.0,0.9,0.4,0.2,0.3,0.29,1.0,0.085,1.2,0.94,0.3,0.4,0.8,0.0,1.0
0.8,0.7670870608274608,0.30202265063031675,1.272069630617997,0.499999999999999,0.7,0.98,0.3,0.4,1.0,0.9,0.4,0.2,0.3,0.29,1.0,0.085,1.2,0.94,0.3,0.4,0.8,0.0,1.0
0.81,0.7637723809725422,0.30481353548168233,1.2712133375241101,0.499999999999999,0.7,0.98,0.3,0.4,1.0,0.9,0.4,0.2,0.3,0.29,1.0,0.085,1.2,0.94,0.3,0.4,0.8,0.0,1.0
0.8200000000000001,0.7604584543269507,0.30758039730727466,1.27036307596851,0.499999999999999,0.7,0.98,0.3,0.4,1.0,0.9,0.4,0.2,0.3,0.29,1.0,0.085,1.2,0.94,0.3,0.4,0.8,0.0,1.0
0.8300000000000001,0.7571455745115124,0.31032330430515354,1.2695187614994818,0.499999999999999,0.7,0.98,0.3,0.4,1.0,0.9,0.4,0.2,0.3,0.29,1.0,0.085,1.2,0.94,0.3,0.4,0.8,0.0,1.0
0.84,0.7538340308159783,0.3130423212365518,1.2686802958801675,0.499999999999999,0.7,0.98,0.3,0.4,1.0,0.9,0.4,0.2,0.3,0.29,1.0,0.085,1.2,0.94,0.3,0.4,0.8,0.0,1.0
0.85,0.7505241076313809,0.31573751511558545,1.2678475842628965,0.499999999999999,0.7,0.98,0.3,0.4,1.0,0.9,0.4,0.2,0.3,0.29,1.0,0.085,1.2,0.94,0.3,0.4,0.8,0.0,1.0
0.86,0.7472160844500341,0.3184089552092541,1.2670205351891841,0.499999999999999,0.7,0.98,0.3,0.4,1.0,0.9,0.4,0.2,0.3,0.29,1.0,0.085,1.2,0.94,0.3,0.4,0.8,0.0,1.0
0.87,0.7439102377243176,0.32105670718267415,1.266199045257389,0.499999999999999,0.7,0.98,0.3,0.4,1.0,0.9,0.4,0.2,0.3,0.29,1.0,0.085,1.2,0.94,0.3,0.4,0.8,0.0,1.0
0.88,0.7406068389956582,0.32368083899238115,1.2653830145559721,0.499999999999999,0.7,0.98,0.3,0.4,1.0,0.9,0.4,0.2,0.3,0.29,1.0,0.085,1.2,0.94,0.3,0.4,0.8,0.0,1.0
0.89,0.7373061523362986,0.3262814289442017,1.2645723677652916,0.499999999999999,0.7,0.98,0.3,0.4,1.0,0.9,0.4,0.2,0.3,0.29,1.0,0.085,1.2,0.94,0.3,0.4,0.8,0.0,1.0
0.9,0.7340084383539849,0.32885855307935974,1.2637670211245893,0.499999999999999,0.7,0.98,0.3,0.4,1.0,0.9,0.4,0.2,0.3,0.29,1.0,0.085,1.2,0.94,0.3,0.4,0.8,0.0,1.0
0.91,0.7307139528243825,0.33141228948206725,1.262966893712626,0.499999999999999,0.7,0.98,0.3,0.4,1.0,0.9,0.4,0.2,0.3,0.29,1.0,0.085,1.2,0.94,0.3,0.4,0.8,0.0,1.0
0.92,0.727422946691076,0.3339427182795246,1.2621719074476787,0.499999999999999,0.7,0.98,0.3,0.4,1.0,0.9,0.4,0.2,0.3,0.29,1.0,0.085,1.2,0.94,0.3,0.4,0.8,0.0,1.0
0.93,0.7241356738653016,0.33644990759841653,1.2613819566390279,0.499999999999999,0.7,0.98,0.3,0.4,1.0,0.9,0.4,0.2,0.3,0.29,1.0,0.085,1.2,0.94,0.3,0.4,0.8,0.0,1.0
0.9400000000000001,0.7208523763519745,0.33893394034566454,1.2605969660518201,0.499999999999999,0.7,0.98,0.3,0.4,1.0,0.9,0.4,0.2,0.3,0.29,1.0,0.085,1.2,0.94,0.3,0.4,0.8,0.0,1.0
0.9500000000000001,0.7175732897933045,0.34139490422708535,1.2598168692659575,0.499999999999999,0.7,0.98,0.3,0.4,1.0,0.9,0.4,0.2,0.3,0.29,1.0,0.085,1.2,0.94,0.3,0.4,0.8,0.0,1.0
0.96,0.7142986472964952,0.3438328848555759,1.2590415937335637,0.499999999999999,0.7,0.98,0.3,0.4,1.0,0.9,0.4,0.2,0.3,0.29,1.0,0.085,1.2,0.94,0.3,0.4,0.8,0.0,1.0
0.97,0.711028677188771,0.3462479697932122,1.2582710695428865,0.499999999999999,0.7,0.98,0.3,0.4,1.0,0.9,0.4,0.2,0.3,0.29,1.0,0.085,1.2,0.94,0.3,0.4,0.8,0.0,1.0
0.98,0.70776360300392,0.34864024857548004,1.2575052294708347,0.499999999999999,0.7,0.98,0.3,0.4,1.0,0.9,0.4,0.2,0.3,0.29,1.0,0.085,1.2,0.94,0.3,0.4,0.8,0.0,1.0
0.99,0.7045036434688352,0.35100981273550613,1.2567440090355142,0.499999999999999,0.7,0.98,0.3,0.4,1.0,0.9,0.4,0.2,0.3,0.29,1.0,0.085,1.2,0.94,0.3,0.4,0.8,0.0,1.0
1.0,0.7012490124900572,0.35335675582828846,1.2559873465487639,0.499999999999999,0.7,0.98,0.3,0.4,1.0,0.9,0.4,0.2,0.3,0.29,1.0,0.085,1.2,0.94,0.3,0.4,0.8,0.0,1.0
1.01,0.6979999191403167,0.3556811734549276,1.2552351831686925,0.499999999999999,0.7,0.98,0.3,0.4,1.0,0.9,0.4,0.2,0.3,0.29,1.0,0.085,1.2,0.94,0.3,0.4,0.8,0.0,1.0
1.02,0.6947565676450764,0.3579831632868571,1.2544874629522136,0.499999999999999,0.7,0.98,0.3,0.4,1.0,0.9,0.4,0.2,0.3,0.29,1.0,0.085,1.2,0.94,0.3,0.4,0.8,0.0,1.0
1.03,0.6915191930077925,0.3602627735224999,1.253744040262613,0.499999999999999,0.7,0.98,0.3,0.4,1.0,0.9,0.4,0.2,0.3,0.29,1.0,0.085,1.2,0.94,0.3,0.4,0.8,0.0,1.0
1.04,0.6882879770237089,0.36252012441617354,1.2530048981142377,0.499999999999999,0.7,0.98,0.3,0.4,1.0,0.9,0.4,0.2,0.3,0.29,1.0,0.085,1.2,0.94,0.3,0.4,0.8,0.0,1.0
1.05,0.6850631084435908,0.36475532122871435,1.2522699917908446,0.499999999999999,0.7,0.98,0.3,0.4,1.0,0.9,0.4,0.2,0.3,0.29,1.0,0.085,1.2,0.94,0.3,0.4,0.8,0.0,1.0
1.06,0.6818447761728677,0.36696846407275935,1.2515392665423828,0.499999999999999,0.7,0.98,0.3,0.4,1.0,0.9,0.4,0.2,0.3,0.29,1.0,0.085,1.2,0.94,0.3,0.4,0.8,0.0,1.0
1.07,0.6786331645903655,0.3691596546910837,1.2508126697717823,0.499999999999999,0.7,0.98,0.3,0.4,1.0,0.9,0.4,0.2,0.3,0.29,1.0,0.085,1.2,0.94,0.3,0.4,0.8,0.0,1.0
1.08,0.6754284535460736,0.3713289964645885,1.2500901510583091,0.499999999999999,0.7,0.98,0.3,0.4,1.0,0.9,0.4,0.2,0.3,0.29,1.0,0.085,1.2,0.94,0.3,0.4,0.8,0.0,1.0
1.09,0.6722308183589129,0.37347659442028885,1.2493716621809194,0.499999999999999,0.7,0.98,0.3,0.4,1.0,0.9,0.4,0.2,0.3,0.29,1.0,0.085,1.2,0.94,0.3,0.4,0.8,0.0,1.0
1.1,0.6690404298145035,0.37560255523930175,1.2486571571416152,0.499999999999999,0.7,0.98,0.3,0.4,1.0,0.9,0.4,0.2,0.3,0.29,1.0,0.085,1.2,0.94,0.3,0.4,0.8,0.0,1.0
1.11,0.665857454162933,0.3777069872648338,1.247946592188798,0.499999999999999,0.7,0.98,0.3,0.4,1.0,0.9,0.4,0.2,0.3,0.29,1.0,0.085,1.2,0.94,0.3,0.4,0.8,0.0,1.0
1.12,0.6626820531165236,0.3797900005101697,1.2472399258406235,0.499999999999999,0.7,0.98,0.3,0.4,1.0,0.9,0.4,0.2,0.3,0.29,1.0,0.085,1.2,0.94,0.3,0.4,0.8,0.0,1.0
1.1300000000000001,0.6595144454084612,0.3818516302091598,1.2465369979537535,0.499999999999999,0.7,0.98,0.3,0.4,1.0,0.9,0.4,0.2,0.3,0.29,1.0,0.085,1.2,0.94,0.3,0.4,0.8,0.0,1.0
1.1400000000000001,0.6563547484465467,0.38389203348467493,1.245837840860582,0.499999999999999,0.7,0.98,0.3,0.4,1.0,0.9,0.4,0.2,0.3,0.29,1.0,0.085,1.2,0.94,0.3,0.4,0.8,0.0,1.0
1.1500000000000001,0.6532031155612225,0.3859113188942017,1.245142409723672,0.499999999999999,0.7,0.98,0.3,0.4,1.0,0.9,0.4,0.2,0.3,0.29,1.0,0.085,1.2,0.94,0.3,0.4,0.8,0.0,1.0
1.16,0.6500596962418583,0.38790959582088713,1.2444506606823587,0.499999999999999,0.7,0.98,0.3,0.4,1.0,0.9,0.4,0.2,0.3,0.29,1.0,0.085,1.2,0.94,0.3,0.4,0.8,0.0,1.0
1.17,0.6469246360291119,0.38988697461244093,1.2437625510832053,0.499999999999999,0.7,0.98,0.3,0.4,1.0,0.9,0.4,0.2,0.3,0.29,1.0,0.085,1.2,0.94,0.3,0.4,0.8,0.0,1.0
1.18,0.6437980765381605,0.39184356655749725,1.2430780394533285,0.499999999999999,0.7,0.98,0.3,0.4,1.0,0.9,0.4,0.2,0.3,0.29,1.0,0.085,1.2,0.94,0.3,0.4,0.8,0.0,1.0
1.19,0.6406801554819337,0.39377948386197636,1.2423970854737192,0.499999999999999,0.7,0.98,0.3,0.4,1.0,0.9,0.4,0.2,0.3,0.29,1.0,0.085,1.2,0.94,0.3,0.4,0.8,0.0,1.0
1.2,0.6375710066943451,0.3956948396254467,1.241719649952566,0.499999999999999,0.7,0.98,0.3,0.4,1.0,0.9,0.4,0.2,0.3,0.29,1.0,0.085,1.2,0.94,0.3,0.4,0.8,0.0,1.0
1.21,0.634470760153524,0.39758974781748635,1.2410456947985775,0.499999999999999,0.7,0.98,0.3,0.4,1.0,0.9,0.4,0.2,0.3,0.29,1.0,0.085,1.2,0.94,0.3,0.4,0.8,0.0,1.0
